Quarters,Year,Quarter,FillingDate,Date,NetIncome,Revenue,OperatingIncome,EPSDiluted,GrossProfit,GrossProfitRatio,TotalAssets,CommonStockEquity,CurrentAssets,CurrentLiability,TotalLiability,Inventory,RetainedEarnings,MarketCap,EnterpriseValue,bookValuePerShare,currentRatio,debtToAssets,debtToEquity,roic,shareholdersEquityPerShare,roe,priceToSalesRatio,peRatio,pbRatio,payoutRatio,inventoryTurnover,dividendYield,assetTurnover,quickRatio,returnOnAssets,priceToFreeCashFlowsRatio,grossProfitMargin,epsdilutedGrowth,fiveYNetIncomeGrowthPerShare,fiveYRevenueGrowthPerShare,fiveYShareholdersEquityGrowthPerShare,grossProfitGrowth,netIncomeGrowth,operatingIncomeGrowth,threeYNetIncomeGrowthPerShare,threeYRevenueGrowthPerShare,threeYShareholdersEquityGrowthPerShare,Industry,Sector,Symbol
2023Q1,2023,Q1,2023-04-21,2023-03-31,264000000.0,4380000000.0,412000000.0,1.11,1784000000.0,0.4073059361,22099000000.0,7142000000.0,8193000000.0,4868000000.0,4868000000.0,2599000000.0,-13515000000.0,31498164000.000004,37363164000.0,30.28837998303647,1.6830320460147905,0.3299244309697271,1.02086250350042,0.02179702388727158,30.28837998303647,0.03696443573228787,7.191361643835617,29.82780681818182,4.41027219266312,0.553030303030303,0.9988457098884186,0.004635190800327282,0.19819901353002398,1.0429334428923582,0.011946241911398706,-899.9475428571429,0.40730593607305937,0.0990099009900991,-0.16265179564535046,0.22720203400826292,0.41527072947297244,0.14212548015364918,0.1092436974789916,0.07291666666666667,0.08964491774782973,0.30085950385823573,0.5166635329214749,Specialty Chemicals,Basic Materials,PPG
2022Q4,2022,Q4,2023-02-16,2022-12-31,238000000.0,4185000000.0,384000000.0,1.01,1562000000.0,0.3732377539,20744000000.0,6592000000.0,7173000000.0,4721000000.0,14035000000.0,2272000000.0,20828000000.0,29611770000.0,36147770000.0,27.991507430997878,1.5193814869730988,0.3680582337061319,1.1582220873786409,0.02054999249476265,27.991507430997878,0.03610436893203883,7.075691756272401,31.104800420168065,4.492076759708738,0.6134453781512605,1.1544894366197183,0.004930471903570776,0.20174508291554186,0.94407964414319,0.011473197069032008,67.76148741418764,0.3732377538829152,-0.27338129496402874,0.6972989693620731,0.22396786570577465,0.2771943656892878,-0.05160898603521554,-0.2765957446808511,-0.232,-0.17973998778466105,0.14696515548894706,0.2554858556295414,Specialty Chemicals,Basic Materials,PPG
2022Q3,2022,Q3,2022-10-20,2022-09-30,329000000.0,4468000000.0,500000000.0,1.39,1647000000.0,0.3686213071,20868000000.0,6034000000.0,7490000000.0,4926000000.0,14724000000.0,2411000000.0,20736000000.0,26067495000.0,32639495000.0,25.62208067940552,1.5205034510759237,0.36424190147594404,1.2596950613191913,0.029356576583254728,25.62208067940552,0.054524361948955914,5.834264771709937,19.80812689969605,4.320101922439509,0.44072948328267475,1.1700539195354624,0.005562483084776654,0.21410772474602263,0.9399106780349168,0.015765765765765764,63.89091911764706,0.36862130707251567,-0.24864864864864875,-0.4118261463747957,0.28827413724855167,0.1130975069806126,-0.05181347150259067,-0.25396825396825395,-0.08088235294117647,-0.09745165078648826,0.17573336085760294,0.1578035694848578,Specialty Chemicals,Basic Materials,PPG
2022Q2,2022,Q2,2022-07-22,2022-06-30,441000000.0,4691000000.0,544000000.0,1.85,1737000000.0,0.3702835216,21572000000.0,6182000000.0,7756000000.0,5165000000.0,15281000000.0,2481000000.0,20552000000.0,27029976000.0,34013976000.0,26.150592216582066,1.5016456921587609,0.36691081030966066,1.2803299902944032,0.030153121319199054,26.150592216582066,0.0713361371724361,5.7620925175868685,15.323115646258504,4.372367518602394,0.31746031746031744,1.1906489318823055,0.005179434861503392,0.21745781568700168,0.9312681510164569,0.02044316706842203,275.81608163265304,0.3702835216371776,18.151138716356108,-0.042683668196601764,0.3404519580358024,0.19419489500590578,0.07888198757763976,18.17391304347826,0.36683417085427134,0.6247527246939384,0.16822110904791224,0.21974311795792312,Specialty Chemicals,Basic Materials,PPG
2022Q1,2022,Q1,2022-04-22,2022-03-31,23000000.0,4308000000.0,398000000.0,0.0966,1610000000.0,0.3737233055,18339000000.0,6218000000.0,7627000000.0,5172000000.0,12006000000.0,2439000000.0,20251000000.0,31011162000.0,37394162000.0,26.280642434488588,1.4746713070378963,0.40040351164185617,1.1809263428755228,0.00853457743865714,26.280642434488588,0.0036989385654551303,7.1985055710306405,337.0778478260869,4.987321003538115,6.043478260869565,1.106191061910619,0.004482257066020293,0.23490920988058236,0.9071925754060325,0.001254157805769126,-62.27140963855422,0.3737233054781801,-0.9167241379310345,-0.9250256882684335,0.3141963754287826,0.3039086076895725,0.07476635514018691,-0.9172661870503597,0.24375,-0.926250894076338,0.18924414861755653,0.26848043724377,Specialty Chemicals,Basic Materials,PPG
2021Q4,2021,Q4,2022-02-17,2021-12-31,278000000.0,4190000000.0,320000000.0,1.16,1498000000.0,0.3575178998,21351000000.0,6286000000.0,6774000000.0,4766000000.0,14940000000.0,2171000000.0,20372000000.0,40937256000.0,47398256000.0,26.478517270429656,1.4213176668065464,0.3496791719357407,1.1877187400572702,0.02155229848382875,26.478517270429656,0.044225262488068726,9.77022816229117,36.81407913669065,6.512449252306713,0.5035971223021583,1.2399815753109167,0.003419867711700071,0.19624373565640954,0.8862778010910617,0.01302046742541333,134.22051147540984,0.3575178997613365,-0.18881118881118883,-0.09762624510629862,0.353286099360968,0.4374992799114319,-0.0860280658938377,-0.19186046511627908,-0.25754060324825984,0.08251209811719987,0.15484622505122358,0.36395817904913025,Specialty Chemicals,Basic Materials,PPG
2021Q3,2021,Q3,2021-10-21,2021-09-30,344000000.0,4372000000.0,431000000.0,1.43,1639000000.0,0.37488563586459284,21883000000.0,6253000000.0,7300000000.0,5463000000.0,15473000000.0,2249000000.0,20226000000.0,34022078999.999996,40505079000.0,26.284153005464482,1.3362621270364268,0.35182561805968104,1.2312490004797698,0.022697870800962593,26.284153005464482,0.05501359347513193,7.781811299176577,24.725348110465113,5.440920997920998,0.4069767441860465,1.2152067585593598,0.004114974866762258,0.19978979116208928,0.8577704557935201,0.01571996526984417,76.11203355704697,0.37488563586459284,-0.2055555555555556,3.0927499680172525,0.29161259818165697,0.39126812668558775,-0.05260115606936416,-0.20185614849187936,-0.18832391713747645,-0.07349804617564176,0.16610508749215225,0.2783176421533127,Specialty Chemicals,Basic Materials,PPG
2021Q2,2021,Q2,2021-07-20,2021-06-30,431000000.0,4359000000.0,531000000.0,1.8,1730000000.0,0.3968800183528332,22353000000.0,6242000000.0,7446000000.0,5488000000.0,15942000000.0,2226000000.0,20022000000.0,40371306000.0,47263306000.0,26.248948696383515,1.3567784256559767,0.36178589003713146,1.2955783402755527,0.02540982365533978,26.248948696383515,0.06904838192886895,9.261598072952513,23.41723085846868,6.467687600128165,0.29698375870069604,1.1810422282120396,0.0031705687202687968,0.1950073815595222,0.8751822157434402,0.01928152820650472,74.48580442804428,0.3968800183528332,0.1392405063291139,0.3088809583342805,0.20519625437905206,0.3119564331600589,0.049120679199514856,0.1402116402116402,0.007590132827324478,0.19641071910300847,0.08669735221129542,0.3162095691532193,Specialty Chemicals,Basic Materials,PPG
2021Q1,2021,Q1,2021-04-16,2021-03-31,378000000.0,3881000000.0,527000000.0,1.58,1649000000.0,0.4248904921412007,20139000000.0,5839000000.0,7339000000.0,5120000000.0,14170000000.0,1914000000.0,19719000000.0,35671724000.0,40936724000.0,24.595619208087616,1.4333984375,0.3512090967773971,1.2113375578009933,0.029532481581408022,24.595619208087616,0.064737112519267,9.191374388044318,23.59241005291005,6.109218016783696,0.3386243386243386,1.1661442006269593,0.0035882762492779993,0.19271066090669844,0.969140625,0.018769551616266946,-346.32741747572817,0.4248904921412007,0.38596491228070196,0.22791334558582538,0.1913691901922241,0.27529310212831737,0.019789734075448363,0.3897058823529412,0.019342359767891684,0.19084997654228203,0.08006199578569483,0.14926780362519393,Specialty Chemicals,Basic Materials,PPG
2020Q4,2020,Q4,2021-02-18,2020-12-31,272000000.0,3757000000.0,517000000.0,1.14,1617000000.0,0.4303965930263508,19556000000.0,5689000000.0,6798000000.0,4831000000.0,13741000000.0,1735000000.0,19469000000.0,34208984000.0,38988984000.0,23.98397976391231,1.4071620782446699,0.33779914092861524,1.1611882580418351,0.031675570365668745,23.98397976391231,0.04781156618034804,9.105398988554699,31.44208088235294,6.013180523817894,0.47058823529411764,1.2334293948126802,0.0037417071492096927,0.19211495193291062,0.9621196439660525,0.013908774800572715,41.11656730769231,0.4303965930263508,-0.3870967741935485,-0.01689562947766403,0.1536381339290277,0.2957028602137655,-0.02531645569620253,-0.38461538461538464,-0.13689482470784642,0.9258680187172647,0.09091766792188052,0.09433919901550222,Specialty Chemicals,Basic Materials,PPG
2020Q3,2020,Q3,2020-10-20,2020-09-30,442000000.0,3685000000.0,599000000.0,1.86,1659000000.0,0.45020352781546813,18300000000.0,5310000000.0,7002000000.0,4613000000.0,12876000000.0,1672000000.0,19325000000.0,28908544000.0,33247544000.0,22.423986486486488,1.5178842401907653,0.34683060109289615,1.195291902071563,0.03752874595207208,22.423986486486488,0.0832391713747646,7.844923744911805,16.350986425339368,5.444170244821092,0.2873303167420814,1.2117224880382775,0.0043931648719492756,0.20136612021857925,1.070453067418166,0.024153005464480876,37.83840837696335,0.45020352781546813,3.325581395348838,0.1686438892703326,0.08955701973280093,0.18942334895059426,0.26448170731707316,3.3333333333333335,0.7774480712166172,-0.2141470288022013,0.056675965557718734,-0.025836981508787604,Specialty Chemicals,Basic Materials,PPG
2020Q2,2020,Q2,2020-07-17,2020-06-30,102000000.0,3015000000.0,337000000.0,0.43,1312000000.0,0.4351575456053068,18170000000.0,4832000000.0,7077000000.0,5234000000.0,13232000000.0,1706000000.0,19010000000.0,25093796000.0,29982796000.0,20.422654268808113,1.3521207489491784,0.393010456796918,1.4778559602649006,0.020247912896004677,20.422654268808113,0.021109271523178808,8.322983747927031,61.504401960784314,5.193252483443709,1.1862745098039216,0.9982415005861665,0.004821908969053546,0.1659328563566318,0.9495605655330531,0.005613648871766648,58.90562441314554,0.4351575456053068,-0.5784313725490197,-0.6514042907560369,-0.15305496567222648,0.0762276712918606,-0.10687542545949626,-0.5802469135802469,0.008982035928143712,-0.7787670643497452,-0.1391928436170321,-0.06737754662334525,Specialty Chemicals,Basic Materials,PPG
2020Q1,2020,Q1,2020-04-28,2020-03-31,243000000.0,3377000000.0,334000000.0,1.02,1469000000.0,0.43500148060408644,18064000000.0,4723000000.0,7066000000.0,5195000000.0,13227000000.0,1859000000.0,19029000000.0,19771400000.0,24092400000.0,19.970401691331922,1.3601539942252165,0.3436116031886625,1.3142070717764134,0.022149743410924645,19.970401691331922,0.05145034935422401,5.854723127035831,20.34094650205761,4.18619521490578,0.49382716049382713,1.0263582571274878,0.006069372932619845,0.18694641275465013,0.9124157844080847,0.013452170062001771,-100.87448979591836,0.43500148060408644,-0.16393442622950816,-0.12823395007419272,0.0652763136169078,0.07442176882077227,-0.058936579115951314,-0.1678082191780822,-0.22685185185185186,-0.20754516337304238,0.03062156685150558,-0.009172674174286721,Specialty Chemicals,Basic Materials,PPG
2019Q4,2019,Q4,2020-02-20,2019-12-31,292000000.0,3672000000.0,432000000.0,1.22,1561000000.0,0.42510893246187365,17708000000.0,5284000000.0,6170000000.0,4375000000.0,12305000000.0,1710000000.0,18906000000.0,31637130000.000004,35473130000.0,22.29535864978903,1.4102857142857144,0.28529478201942626,0.9560938682816048,0.02955467488412588,22.29535864978903,0.05526116578349735,8.615776143790852,27.086583904109588,5.987344814534444,0.4143835616438356,1.234502923976608,0.0038246199955558544,0.2073639033205331,0.9209142857142857,0.016489722159475945,51.02762903225807,0.42510893246187365,-0.20779220779220783,3.0762137156219818,0.1477102846820761,0.18191225583630652,-0.05106382978723404,-0.20435967302452315,-0.16602316602316602,-0.050583271283196736,0.18798412998299643,0.21039866685551725,Specialty Chemicals,Basic Materials,PPG
2019Q3,2019,Q3,2019-10-18,2019-09-30,367000000.0,3826000000.0,518000000.0,1.54,1645000000.0,0.42995295347621537,18064000000.0,5247000000.0,6817000000.0,4578000000.0,12709000000.0,1860000000.0,18735000000.0,28098721000.0,32190721000.0,22.12990299451708,1.4890782000873743,0.30580159433126664,1.052792071659996,0.03477262256882082,22.12990299451708,0.06994473032208881,7.344150810245687,19.14081811989101,5.3551974461597105,0.32697547683923706,1.1725806451612903,0.004270657016737523,0.21180248007085917,0.9868938401048493,0.020316651904340125,40.256047277936965,0.42995295347621537,0.3508771929824563,0.15318408305206319,0.1334613449147552,-0.000701652069184606,-0.05241935483870968,0.3492647058823529,-0.0831858407079646,3.2402054719160875,0.13412251652127596,0.17137610165770206,Specialty Chemicals,Basic Materials,PPG
2019Q2,2019,Q2,2019-07-19,2019-06-30,272000000.0,4024000000.0,565000000.0,1.14,1736000000.0,0.43141153081510936,17955000000.0,5079000000.0,6707000000.0,4706000000.0,12768000000.0,1945000000.0,18488000000.0,28103447000.0,32639447000.0,21.439425918108906,1.4252018699532512,0.306265664160401,1.082693443591258,0.03809695596789832,21.439425918108906,0.05355384918291002,6.983958001988071,25.83037408088235,5.533263831462886,0.41911764705882354,1.176349614395887,0.004056441901948896,0.22411584516847674,0.9239269018274543,0.015148983570036202,60.82997186147186,0.43141153081510936,-0.12977099236641232,-0.17546372947637548,0.15348814892012175,-0.04637213342429583,0.11927788523533205,-0.1282051282051282,0.2870159453302961,-0.1708395605398559,0.11680067007242492,0.0715702591318181,Specialty Chemicals,Basic Materials,PPG
2019Q1,2019,Q1,2019-04-19,2019-03-31,312000000.0,3624000000.0,439000000.0,1.31,1551000000.0,0.4279801324503311,17371000000.0,4904000000.0,6409000000.0,4588000000.0,12361000000.0,1965000000.0,18330000000.0,27035874000.0,31530874000.0,20.71820870299958,1.3969049694856146,0.30389730009786425,1.076468189233279,0.030423309051613792,20.71820870299958,0.0636215334420881,7.460230132450331,21.663360576923075,5.5130248776508965,0.36217948717948717,1.0549618320610687,0.004179631847670247,0.2086235680156583,0.8796861377506539,0.01796096943181164,-239.2555221238938,0.4279801324503311,0.21296296296296294,-0.7094277697098977,0.1714484502949661,-0.038083167360733895,0.06451612903225806,0.20930232558139536,0.15526315789473685,0.01651307787554378,0.11576662773263094,0.07424775216482993,Specialty Chemicals,Basic Materials,PPG
2018Q4,2018,Q4,2019-02-21,2018-12-31,258000000.0,3645000000.0,380000000.0,1.08,1457000000.0,0.39972565157750345,16015000000.0,4630000000.0,5961000000.0,4373000000.0,11283000000.0,1783000000.0,18131000000.0,24381855000.0,28495855000.0,19.41299790356394,1.3631374342556597,0.31320636902903526,1.0833693304535637,0.029833897758426063,19.41299790356394,0.05572354211663067,6.689123456790123,23.625828488372093,5.26605939524838,0.44573643410852715,1.2271452607964106,0.004716622258642749,0.22759912581954417,0.8707980791218843,0.016109896971589134,39.64529268292683,0.39972565157750345,-0.3032258064516129,0.19930669043728025,0.1625332558637351,0.1084144788409581,-0.06841432225063938,-0.31746031746031744,-0.1827956989247312,-0.07257941753795626,0.11314628767458967,0.04876159655617357,Specialty Chemicals,Basic Materials,PPG
2018Q3,2018,Q3,2018-10-19,2018-09-30,378000000.0,3817000000.0,465000000.0,1.55,1564000000.0,0.40974587372281895,16718000000.0,4980000000.0,6741000000.0,3933000000.0,11640000000.0,1962000000.0,17987000000.0,26581450000.0,30516450000.0,20.561519405450042,1.7139588100686498,0.3013518363440603,1.0116465863453816,0.038285852649266795,20.561519405450042,0.07590361445783132,6.9639638459523185,17.580324074074074,5.337640562248996,0.30687830687830686,1.1483180428134556,0.004363945533445317,0.22831678430434263,1.112890922959573,0.022610360090919965,62.106191588785045,0.40974587372281895,0.026490066225165587,0.9777993759271574,0.13406504031304328,0.13007468004622752,-0.10730593607305935,0.018867924528301886,-0.1813380281690141,-0.02285439666795714,0.10342340102094429,0.09063351806251356,Specialty Chemicals,Basic Materials,PPG
2018Q2,2018,Q2,2018-07-20,2018-06-30,371000000.0,4131000000.0,568000000.0,1.51,1752000000.0,0.4241103848946986,16794000000.0,4884000000.0,6879000000.0,4047000000.0,11811000000.0,1956000000.0,17725000000.0,25403477000.0,29453477000.0,19.942833809718252,1.6997776130467013,0.3018935334047874,1.038083538083538,0.044673137350392175,19.942833809718252,0.07596232596232597,6.149473977245219,17.118245956873317,5.201367117117117,0.29649595687331537,1.2162576687116564,0.004330115912872872,0.2459807073954984,1.117123795404003,0.02209122305585328,80.39075,0.4241103848946986,0.07857142857142865,0.2741187078572977,0.18138553973588667,0.13439205407124052,0.095,0.11077844311377245,0.2374727668845316,0.22495950021385824,0.12111215130117807,0.05094221874844787,Specialty Chemicals,Basic Materials,PPG
2018Q1,2018,Q1,2018-06-28,2018-03-31,334000000.0,3781000000.0,459000000.0,1.4,1600000000.0,0.42316847394869084,17544000000.0,5346000000.0,7110000000.0,4030000000.0,12077000000.0,1963000000.0,17464000000.0,27877680000.0,31749680000.0,21.401120896717373,1.7642679900744418,0.2974236206110351,0.9760568649457538,0.034470585801642466,21.401120896717373,0.06247661803217359,7.373097064268712,20.866526946107786,5.214680134680135,0.33532934131736525,1.1110545084055017,0.004017550958329388,0.21551527587779298,1.1779156327543425,0.019037847697218422,-92.00554455445544,0.42316847394869084,0.9444444444444444,-0.8378872392519825,0.32776073756032736,0.3063312149615242,0.023672424824056303,1.2119205298013245,0.2047244094488189,0.13443301224830784,0.12921489567404873,0.15139547636533807,Specialty Chemicals,Basic Materials,PPG
2017Q4,2017,Q4,2018-02-15,2017-12-31,151000000.0,3682000000.0,381000000.0,0.72,1563000000.0,0.4244975556762629,16538000000.0,5558000000.0,6477000000.0,3894000000.0,10865000000.0,1730000000.0,17141000000.0,29625552000.0,32335552000.0,21.91640378548896,1.6633281972265024,0.25069536824283467,0.7459517812162648,0.01593398002628466,21.91640378548896,0.027168046059733716,8.046048886474741,49.04892715231788,5.330254048218783,0.7483443708609272,1.2248554913294798,0.0038142749205145616,0.22263877131454832,1.1284026707755521,0.009130487362438022,77.35131070496084,0.4244975556762629,-0.6949152542372882,-0.19158479133951278,0.22662649081299457,0.6624749315007868,-0.06742243436754176,-0.7520525451559934,-0.29444444444444445,0.9699270267188626,0.07550511905602754,0.1618232585898202,Specialty Chemicals,Basic Materials,PPG
2017Q3,2017,Q3,2017-10-20,2017-09-30,609000000.0,3776000000.0,540000000.0,2.36,1676000000.0,0.4438559322033898,17615000000.0,5902000000.0,7638000000.0,4618000000.0,11605000000.0,1805000000.0,17106000000.0,27860424000.0,30278424000.0,23.018720748829953,1.653962754439151,0.26710190178824866,0.7971873941036937,0.0388907698117728,23.018720748829953,0.103185360894612,7.378290254237288,11.43695566502463,4.720505591324975,0.19047619047619047,1.1634349030470914,0.004163612154646319,0.2143627590122055,1.1873105240363795,0.0345728072665342,54.20315953307393,0.4438559322033898,0.21649484536082472,1.153790399403587,0.17739309312294466,0.8326741150454098,-0.027842227378190254,0.2155688622754491,-0.14691943127962084,0.7695522915256233,0.034444671306547305,0.03943382045035103,Specialty Chemicals,Basic Materials,PPG
2017Q2,2017,Q2,2017-07-21,2017-06-30,501000000.0,3806000000.0,633000000.0,1.94,1724000000.0,0.4529689963215975,16977000000.0,5630000000.0,7145000000.0,4441000000.0,11242000000.0,1766000000.0,16613000000.0,28270716000.0,31318716000.0,21.89809412679891,1.6088718757036704,0.27195617600282734,0.8200710479573712,0.046859994790376655,21.89809412679891,0.08898756660746003,7.427933788754598,14.10714371257485,5.021441563055062,0.20359281437125748,1.1789354473386184,0.003607973706785495,0.22418566295576367,1.0826390452600765,0.029510514225128116,77.24239344262296,0.4529689963215975,0.503875968992248,0.6493614497443866,0.14685623611801574,0.938623530901816,0.0775,0.5,0.38209606986899564,0.39939903628152196,0.005279746526429814,-0.02597052439848246,Specialty Chemicals,Basic Materials,PPG
2017Q1,2017,Q1,2017-04-24,2017-03-31,334000000.0,3569000000.0,458000000.0,1.29,1600000000.0,0.4483048472961614,16154000000.0,5192000000.0,6646000000.0,4273000000.0,10868000000.0,1727000000.0,16214000000.0,27068608000.0,30140608000.0,20.15527950310559,1.555347531008659,0.27367834592051504,0.851502311248074,0.03605190515819352,20.15527950310559,0.06432973805855162,7.584367609974783,20.260934131736526,5.213522342064715,0.3083832335329341,1.1401273885350318,0.0038051457984097296,0.22093599108579917,1.040486777439738,0.020675993561966078,-492.1565090909091,0.4483048472961614,-0.007692307692307699,29.47969421882465,0.12847309592234044,0.8704686960671328,0.0617120106171201,-0.01764705882352941,0.10361445783132531,-0.7141762065537302,0.06006852626256408,-0.06421916592724057,Specialty Chemicals,Basic Materials,PPG
2016Q4,2016,Q4,2017-02-16,2016-12-31,340000000.0,3417000000.0,415000000.0,1.3,1507000000.0,0.44103014340064384,15769000000.0,4826000000.0,6452000000.0,4240000000.0,10856000000.0,1546000000.0,15984000000.0,24827120000.0,27423120000.0,18.419847328244273,1.521698113207547,0.2800431225822817,0.9150435142975549,0.031192646910635315,18.419847328244273,0.07045171985080813,7.265765291191103,18.25523529411765,5.144450891007046,0.3088235294117647,1.2354463130659767,0.0042292460825097715,0.21669097596550194,1.0742924528301887,0.021561291140845963,57.737488372093026,0.44103014340064384,2.884057971014493,0.8360192253322023,0.13324723751809642,0.7325655104682824,-0.11768149882903982,2.847826086956522,2.050632911392405,0.43872092324337314,-0.00793546710876313,0.05170904453235746,Specialty Chemicals,Basic Materials,PPG
2016Q3,2016,Q3,2016-10-21,2016-09-30,-184000000.0,3789000000.0,-395000000.0,-0.69,1708000000.0,0.45077856954341516,16490000000.0,5031000000.0,6417000000.0,4460000000.0,11369000000.0,1676000000.0,15744000000.0,27524768000.0,30999768000.0,18.892226811866315,1.4387892376681615,0.26707095209217707,0.8753726893261777,-0.019868322959050774,18.892226811866315,-0.03657324587557146,7.26438849300607,-37.39778260869566,5.471033194195985,-0.5760869565217391,1.2416467780429594,0.003851076964572417,0.2297756215888417,0.8827354260089686,-0.011158277744087326,40.12356851311954,0.45077856954341516,-1.5036496350364963,-1.6967264876665222,0.1592619508878488,0.6178597291647395,-0.08858057630736393,-1.4972972972972973,-1.5825958702064897,-1.8756110448326624,0.023866610559368374,0.03832925713270242,Specialty Chemicals,Basic Materials,PPG
2016Q2,2016,Q2,2016-07-22,2016-06-30,370000000.0,4064000000.0,678000000.0,1.37,1874000000.0,0.4611220472440945,17248000000.0,5346000000.0,7107000000.0,4375000000.0,11815000000.0,1803000000.0,16034000000.0,27828880000.0,31335880000.0,20.00748502994012,1.6244571428571428,0.2963821892393321,0.9562289562289562,0.03622044961846963,20.00748502994012,0.06921062476618033,6.847657480314961,18.8032972972973,5.205551814440703,0.2891891891891892,1.2146422628951747,0.0038449265654959884,0.23562152133580705,1.0918857142857143,0.021451762523191094,-159.02217142857143,0.4611220472440945,0.06201550387596905,0.28861394857344136,0.20730340623319335,0.5615116584787998,0.1295961422543701,0.06628242074927954,0.3532934131736527,0.16463553830754912,0.06522778618586994,0.13806955703824408,Specialty Chemicals,Basic Materials,PPG
2016Q1,2016,Q1,2016-04-21,2016-03-31,347000000.0,3672000000.0,501000000.0,1.29,1659000000.0,0.45179738562091504,17315000000.0,5161000000.0,6718000000.0,4556000000.0,12067000000.0,1863000000.0,15770000000.0,29834724000.0,33189724000.0,19.28624813153961,1.474539069359087,0.2462604678024834,0.8261964735516373,0.03995201811147342,19.28624813153961,0.06723503197054834,8.124924836601307,21.494757925072044,5.780802945165665,0.276657060518732,1.0805152979066022,0.0032177271021511713,0.21207045913947445,0.9078138718173837,0.020040427375108288,-1657.4846666666667,0.45179738562091504,0.11206896551724149,0.8244958434951354,0.24596913914799465,0.6428646841736346,0.034934497816593885,0.10509554140127389,0.06595744680851064,-0.8427804551290401,0.20371075896625387,0.17723870984664186,Specialty Chemicals,Basic Materials,PPG
2015Q4,2015,Q4,2016-02-18,2015-12-31,314000000.0,3696000000.0,470000000.0,1.16,1603000000.0,0.4337121212121212,17076000000.0,4983000000.0,6554000000.0,4656000000.0,12007000000.0,1705000000.0,15521000000.0,26602344000.0,29616344000.0,18.51040118870728,1.4076460481099657,0.25327945654720074,0.8679510335139474,0.038443077169227485,18.51040118870728,0.06301424844471203,7.197603896103896,21.1802101910828,5.338620108368453,0.3057324840764331,1.227565982404692,0.0036087045562601555,0.21644413211524946,0.9112972508591065,0.01838838135394706,41.50131669266771,0.4337121212121212,-0.27044025157232715,0.8253035190084443,0.30347610690450183,0.6322530789822144,-0.06910569105691057,-0.2748267898383372,-0.20068027210884354,0.5836578931865343,0.1599378274810353,0.40411165305429086,Specialty Chemicals,Basic Materials,PPG
2015Q3,2015,Q3,2015-10-26,2015-09-30,433000000.0,3872000000.0,588000000.0,1.59,1722000000.0,0.4447314049586777,17574000000.0,5111000000.0,7292000000.0,4770000000.0,12378000000.0,1841000000.0,15302000000.0,23772759000.0,27309759000.0,18.85282183696053,1.5287211740041928,0.2590190053488107,0.8906280571316768,0.04597838731517189,18.85282183696053,0.08471923302680492,6.139658832644628,13.72561143187067,4.651293093328116,0.22632794457274827,1.1678435632808257,0.004122365435160471,0.22032548082394446,0.9383647798742139,0.024638670763628086,34.15626293103448,0.4447314049586777,0.2926829268292684,1.0019823112510244,0.3556041219352543,0.5981586709493645,-0.05228398458998349,0.28486646884273,-0.04390243902439024,0.4483133829291568,0.14186128948238144,0.5009990760636277,Specialty Chemicals,Basic Materials,PPG
2015Q2,2015,Q2,2015-07-27,2015-06-30,337000000.0,4100000000.0,615000000.0,1.23,1817000000.0,0.4431707317073171,17596000000.0,5171000000.0,7374000000.0,4825000000.0,12340000000.0,1861000000.0,14966000000.0,31261200000.0,35069200000.0,18.976146788990825,1.5282901554404145,0.2565924073653103,0.8731386578998259,0.04804169506577324,18.976146788990825,0.0651711467801199,7.624682926829268,23.19080118694362,6.045484432411526,0.29080118694362017,1.2267598065556153,0.003134876460276637,0.23300750170493295,0.9260103626943005,0.01915208001818595,59.54514285714286,0.4431707317073171,0.05128205128205133,0.5040420939017809,0.4393216633680178,0.8195099587820769,0.13775829680651222,0.046583850931677016,0.38513513513513514,0.04675148258908206,0.1656270659599393,0.679945500186879,Specialty Chemicals,Basic Materials,PPG
2015Q1,2015,Q1,2015-04-27,2015-03-31,322000000.0,3662000000.0,444000000.0,1.17,1597000000.0,0.4361004915346805,17368000000.0,5078000000.0,7084000000.0,4773000000.0,12210000000.0,1881000000.0,14728000000.0,30808764000.0,34717764000.0,18.587115666178622,1.4841818562748796,0.26738830032243205,0.9145332808192201,0.0346239409060247,18.587115666178622,0.06341079165025601,8.413097760786455,23.919847826086954,6.067105947223316,0.2826086956521739,1.097820308346624,0.002953704991216136,0.2108475356978351,0.8654934003771213,0.01853984339014279,-61.49453892215569,0.4361004915346805,2.9,12.035578330893118,0.42273839867582064,0.716927889208816,0.035667963683527884,2.8795180722891565,0.08029197080291971,26.706723730149793,0.09176248021552982,0.7249385203717544,Specialty Chemicals,Basic Materials,PPG
2014Q4,2014,Q4,2015-02-19,2014-12-31,83000000.0,3707000000.0,411000000.0,0.3,1542000000.0,0.4159697868896682,17583000000.0,5180000000.0,6850000000.0,4876000000.0,12318000000.0,1825000000.0,14498000000.0,31736895000.0,35075895000.0,18.86380189366351,1.4048400328137818,0.22891429221407042,0.777027027027027,0.19560797703111665,18.86380189366351,0.016023166023166023,8.561342055570542,95.59305722891565,6.1268137065637065,1.108433734939759,1.1863013698630136,0.002898834306254597,0.2108286413012569,0.8199343724364233,0.004720468634476483,121.13318702290076,0.4159697868896682,-0.7744360902255639,-0.2937383954125334,0.4374772688386982,0.6677350035485087,-0.09613130128956623,-0.7762803234501348,-0.21863117870722434,-0.5723611448301907,0.17301356578110558,0.7743237484467739,Specialty Chemicals,Basic Materials,PPG
2014Q3,2014,Q3,2014-10-24,2014-09-30,371000000.0,3935000000.0,526000000.0,1.33,1706000000.0,0.4335451080050826,17087000000.0,6121000000.0,8898000000.0,4896000000.0,10882000000.0,1905000000.0,14506000000.0,27189468000.0,28069468000.0,22.145441389290884,1.8174019607843137,0.19593843272663428,0.5469694494363666,0.042636334026168295,22.145441389290884,0.06061101127266787,6.909648792884371,18.321743935309975,4.441997712792028,0.24797843665768193,1.1700787401574804,0.003383663115438669,0.23029203488031838,1.2267156862745099,0.021712412945514133,53.312682352941174,0.4335451080050826,-0.032727272727272674,1.7891944042450554,0.458535545608544,1.0680762676714834,-0.039414414414414414,-0.038860103626943004,-0.04363636363636364,0.3534790438387909,0.15993817252512446,0.8964528726601914,Specialty Chemicals,Basic Materials,PPG
2014Q2,2014,Q2,2014-07-23,2014-06-30,386000000.0,4082000000.0,550000000.0,1.375,1776000000.0,0.4350808427241548,17300000000.0,6232000000.0,9035000000.0,4962000000.0,10979000000.0,1964000000.0,14227000000.0,29126790000.0,30523790000.0,22.481962481962483,1.820838371624345,0.19554913294797688,0.5428433889602053,0.04355670410022507,22.481962481962483,0.061938382541720155,7.135421362077413,18.86450129533679,4.673746790757381,0.23834196891191708,1.1741344195519348,0.003158604157890382,0.23595375722543352,1.228738411930673,0.0223121387283237,267.2182568807339,0.4350808427241548,-0.6934225195094761,2.12453300124533,0.548694002626587,1.3197136721546174,0.14951456310679612,-0.694136291600634,0.35467980295566504,0.29584076054664293,0.16890429635035756,0.7546356510342699,Specialty Chemicals,Basic Materials,PPG
2014Q1,2014,Q1,2014-04-24,2014-03-31,1262000000.0,3636000000.0,406000000.0,4.485,1545000000.0,0.4249174917491749,17117000000.0,5992000000.0,8888000000.0,4566000000.0,11028000000.0,1929000000.0,13934000000.0,26910286000.0,27743286000.0,21.53846153846154,1.9465615418309241,0.1981655663959806,0.5660881174899867,0.03291406557948097,21.53846153846154,0.21061415220293725,7.401068756875688,5.330880744849446,4.491035714285714,0.06735340729001585,1.0839813374805598,0.0031586435015963786,0.21242040077116317,1.3261060008760404,0.07372787287491966,448.5047666666667,0.4249174917491749,4.03932584269663,14.4045763952306,0.5403782800628135,1.496330524599076,-0.030740276035131745,3.968503937007874,-0.06451612903225806,5.382660461361888,0.18674516518079612,0.834715470403203,Specialty Chemicals,Basic Materials,PPG
2013Q4,2013,Q4,2014-02-20,2013-12-31,254000000.0,3702000000.0,434000000.0,0.89,1594000000.0,0.4305780659103187,15863000000.0,4932000000.0,7214000000.0,4135000000.0,10665000000.0,1824000000.0,12757000000.0,26704128000.0,28994128000.0,17.514204545454547,1.7446191051995164,0.2147134842085356,0.6905920519059205,0.039352118309725105,17.514204545454547,0.05150040551500405,7.213432739059968,26.283590551181103,5.414462287104622,0.33858267716535434,1.155701754385965,0.003220475875490112,0.23337325852613,1.083675937122128,0.016012103637395195,105.54991304347826,0.4305780659103187,0.141025641025641,3.1669334186939824,0.352568581042546,0.7235700842811554,-0.08495981630309989,0.12389380530973451,-0.19029850746268656,0.4115022172949003,0.24810157658263604,0.5444081413363988,Specialty Chemicals,Basic Materials,PPG
2013Q3,2013,Q3,2013-10-28,2013-09-30,226000000.0,3980000000.0,536000000.0,0.78,1742000000.0,0.4376884422110553,16638000000.0,5211000000.0,8120000000.0,4362000000.0,11157000000.0,1878000000.0,12589000000.0,23922992000.0,25755992000.0,18.19483240223464,1.8615314076111875,0.20405096766438274,0.6515064287085013,0.050188511514883495,18.19483240223464,0.04336979466513145,6.010802010050251,26.463486725663717,4.590863941661869,0.3893805309734513,1.1916932907348243,0.003678469649615734,0.239211443683135,1.2313159101329665,0.013583363385022237,34.97513450292398,0.4376884422110553,-0.33617021276595743,1.2216373012462398,0.08344517536610364,0.4256369632007825,-0.005707762557077625,-0.33724340175953077,0.0248565965583174,-0.010906648471150098,0.3189766525656345,0.5423807333231427,Specialty Chemicals,Basic Materials,PPG
2013Q2,2013,Q2,2013-07-29,2013-06-30,341000000.0,4095000000.0,523000000.0,1.175,1752000000.0,0.4278388278388278,16066000000.0,5042000000.0,7710000000.0,4106000000.0,10765000000.0,1862000000.0,12450000000.0,21286296000.0,23422296000.0,17.580195258019526,1.8777398928397466,0.2103199302875638,0.6701705672352242,0.047119760244922794,17.580195258019526,0.06763189210630702,5.1981186813186815,15.605788856304986,4.221796112653709,0.25513196480938416,1.2583243823845327,0.004087136625366855,0.25488609485870783,1.2187043351193376,0.021224947093240385,43.17707099391481,0.4278388278388278,-0.8559166155732679,0.5656513249651325,0.050602925690601055,0.2516004063451616,0.2658959537572254,-0.85850622406639,0.4328767123287671,0.4460117729100008,0.3658885707993835,0.6856604612616984,Specialty Chemicals,Basic Materials,PPG
2013Q1,2013,Q1,2013-04-29,2013-03-31,2410000000.0,3331000000.0,365000000.0,8.155,1384000000.0,0.41549084359051336,15376000000.0,4787000000.0,7726000000.0,3727000000.0,10335000000.0,1698000000.0,12196000000.0,19600776000.0,20980776000.0,16.38261464750171,2.072980949825597,0.2211888657648283,0.7104658449968665,0.03560587206926535,16.38261464750171,0.5034468351786088,5.884351846292405,2.033275518672199,4.094584499686651,0.034854771784232366,1.146643109540636,0.004285544613131643,0.2166363163371488,1.3962972900456132,0.15673777315296566,-127.27776623376623,0.41549084359051336,10.171232876712327,26.04188683504449,0.004735254623803182,0.2280176171090011,-0.04419889502762431,9.616740088105727,-0.12470023980815348,90.22039698836413,0.20999013375268183,0.5132938585860435,Specialty Chemicals,Basic Materials,PPG
2012Q4,2012,Q4,2013-02-21,2012-12-31,227000000.0,3648000000.0,417000000.0,0.73,1448000000.0,0.3969298245614035,15878000000.0,4063000000.0,7715000000.0,4461000000.0,11556000000.0,1687000000.0,9871000000.0,20857435000.0,23561435000.0,13.1829980532122,1.729432862586864,0.2525506990804887,0.9869554516367216,0.03866383452182268,13.1829980532122,0.05587004676347526,5.717498629385965,22.970743392070485,5.133506030027073,0.4008810572687225,1.3040901007705987,0.004362952587410677,0.22975185791661418,1.1670029141448106,0.014296510895578788,37.04695381882771,0.3969298245614035,-0.33027522935779824,0.2074339617780662,0.35031655295276376,0.0412658245302142,-0.07000642260757868,-0.3303834808259587,-0.185546875,0.7210015446344517,0.26037891138158625,0.16549926833354875,Specialty Chemicals,Basic Materials,PPG
2012Q3,2012,Q3,2012-10-29,2012-09-30,339000000.0,3845000000.0,512000000.0,1.09,1557000000.0,0.40494148244473344,15606000000.0,3861000000.0,7777000000.0,4490000000.0,11474000000.0,1777000000.0,9734000000.0,17760035000.0,20369035000.0,12.560182173064412,1.7320712694877505,0.2563757529155453,1.0362600362600363,0.048775534346070536,12.560182173064412,0.08780108780108781,4.618994798439532,13.097370943952802,4.599853664853664,0.11209439528023599,1.2875633089476646,0.002139635423015777,0.24637959759067027,1.1583518930957684,0.02172241445597847,33.8286380952381,0.40494148244473344,-0.06837606837606826,0.9013752730211502,0.4591064482233149,0.03327452527471673,-0.028696194635059263,-0.06353591160220995,-0.07747747747747748,1.291599661187562,0.2814533496744388,0.1729463510402718,Specialty Chemicals,Basic Materials,PPG
2012Q2,2012,Q2,2012-07-30,2012-06-30,362000000.0,3955000000.0,555000000.0,1.17,1603000000.0,0.40530973451327434,14817000000.0,3461000000.0,7151000000.0,4565000000.0,11142000000.0,1775000000.0,9486000000.0,16257584000.0,18851584000.0,11.295691906005223,1.5664841182913471,0.2437065532833907,1.0433400751227968,0.05897056676998635,11.295691906005223,0.10459404796301647,4.110640707964602,11.227613259668509,4.69736607916787,0.35082872928176795,1.3250704225352112,0.007811738816788521,0.26692312883849634,0.9982475355969331,0.024431396369035567,45.412245810055865,0.40530973451327434,28.249999999999996,0.5648505202271226,0.3416525205480888,0.01094549725706865,0.05252790544977019,26.846153846153847,0.2528216704288939,1.6510068314317392,0.3575116613371666,0.16550194280545233,Specialty Chemicals,Basic Materials,PPG
2012Q1,2012,Q1,2012-04-30,2012-03-31,13000000.0,3752000000.0,443000000.0,0.04,1523000000.0,0.4059168443496802,14834000000.0,3293000000.0,6944000000.0,4558000000.0,11318000000.0,1830000000.0,9213000000.0,14638240000.0,17317240000.0,10.775523560209423,1.5234752084247476,0.2465282459215316,1.1105375037959309,0.06374100719424461,10.775523560209423,0.0039477679927118125,3.901449893390192,281.50461538461536,4.445259641664136,7.846153846153846,1.2180327868852459,0.006968050803921782,0.2529324524740461,0.9368143922773147,0.0008763651071861939,-209.1177142857143,0.4059168443496802,-0.9434074074074074,-0.9278995475016193,0.38395754774772173,0.031181097765078894,0.14253563390847712,-0.9398148148148148,0.44299674267100975,1.1257016178482147,0.44700528451537286,0.248894603444767,Specialty Chemicals,Basic Materials,PPG
2011Q4,2011,Q4,2012-02-16,2011-12-31,216000000.0,3517000000.0,307000000.0,0.7068062827225131,1333000000.0,0.37901620699459765,14382000000.0,3249000000.0,6694000000.0,3702000000.0,10936000000.0,1607000000.0,9288000000.0,12757272000.0,14982272000.0,10.631544502617801,1.808211777417612,0.2560144625225977,1.1332717759310558,0.03727537639630889,10.631544502617801,0.0664819944598338,3.6273164628945125,14.76536111111111,3.9265226223453364,0.2361111111111111,1.359054138145613,0.003997719888703478,0.2445417883465443,1.1647757968665586,0.015018773466833541,25.31204761904762,0.37901620699459765,-0.2787690992627417,0.4803024799079602,0.36464241834004246,0.0809511396328523,-0.1089572192513369,-0.3054662379421222,-0.34120171673819744,2.2652459258166804,0.18406228855590676,0.04624860391798342,Specialty Chemicals,Basic Materials,PPG
2011Q3,2011,Q3,2011-10-31,2011-09-30,311000000.0,3849000000.0,466000000.0,0.98,1496000000.0,0.38867238243699664,14543000000.0,3662000000.0,6940000000.0,3788000000.0,10637000000.0,1737000000.0,9159000000.0,11079488000.0,13470488000.0,11.677295918367347,1.8321013727560718,0.25386784019803343,1.0081922446750409,0.046907946554397464,11.677295918367347,0.08492626979792463,2.878536762795531,8.90634083601286,3.0255292190060072,0.3022508038585209,1.3546344271732873,0.008484146559841033,0.2646634119507667,1.1684266103484688,0.021384858694904765,26.130867924528303,0.38867238243699664,-0.07547169811320761,2.6729969728954086,0.4600995629909485,0.11755152710212,-0.04652644996813257,-0.08529411764705883,-0.08806262230919765,1.7920427786499213,-0.043095187779253676,-0.08503775558748713,Specialty Chemicals,Basic Materials,PPG
2011Q2,2011,Q2,2011-08-01,2011-06-30,340000000.0,3986000000.0,511000000.0,1.06,1569000000.0,0.3936276969392875,15267000000.0,4054000000.0,7239000000.0,3922000000.0,10979000000.0,1821000000.0,8938000000.0,14362978000.000002,17104978000.000002,12.812895069532237,1.845741968383478,0.24392480513525905,0.9185989146521953,0.04887940344561584,12.812895069532237,0.08386778490379872,3.6033562468640246,10.56101323529412,3.5429151455352743,0.3558823529411765,1.327292696320703,0.008424436770703122,0.26108600248902863,1.1703212646608874,0.02227025610794524,43.78956707317074,0.3936276969392875,0.5142857142857145,0.27170311066461966,0.4782144723281213,0.2210793914443006,0.11593172119487909,0.49122807017543857,0.31362467866323906,0.4150189633375474,-0.07303216166224064,-0.08780167454800775,Specialty Chemicals,Basic Materials,PPG
2011Q1,2011,Q1,2011-05-02,2011-03-31,228000000.0,3533000000.0,389000000.0,0.7,1406000000.0,0.39796207189357485,15103000000.0,3766000000.0,7084000000.0,3749000000.0,11108000000.0,1755000000.0,8687000000.0,15271683999.999998,18564684000.0,11.739401496259351,1.8895705521472392,0.27074091240150966,1.0857673924588422,0.036542315218317765,11.739401496259351,0.0605416887944769,4.3225825077837525,16.745267543859647,4.055147105682422,0.39035087719298245,1.2119658119658119,0.0058277790451923975,0.23392703436403364,1.202720725526807,0.01509633847579951,-72.72230476190475,0.39796207189357485,0.09541463414634144,0.28058232977339276,0.384074053111157,0.2109464103353935,0.08739365815931942,0.11219512195121951,0.2966666666666667,1.3302399705735664,-0.029341419539189572,-0.12003107184599092,Specialty Chemicals,Basic Materials,PPG
2010Q4,2010,Q4,2011-02-17,2010-12-31,205000000.0,3379000000.0,300000000.0,0.6390274314214464,1293000000.0,0.3826575910032554,14975000000.0,3638000000.0,7058000000.0,3625000000.0,11142000000.0,1573000000.0,8548000000.0,13484827999.999998,16214827999.999998,11.340399002493765,1.9470344827586208,0.2718530884808013,1.1190214403518417,0.03049053656657836,11.340399002493765,0.05634964266080264,3.9907747854394784,16.44491219512195,3.7066597031335897,0.7121951219512195,1.326128417037508,0.010826982739416477,0.22564273789649417,1.312,0.013689482470784642,29.124898488120945,0.3826575910032554,-0.1911045171880426,0.8748472860989118,0.39402622016316496,0.2314771879423614,-0.04363905325443787,-0.21755725190839695,-0.24433249370277077,0.047585951683291786,0.20162022191823858,-0.10427280121185838,Specialty Chemicals,Basic Materials,PPG
2010Q3,2010,Q3,2010-11-01,2010-09-30,262000000.0,3460000000.0,397000000.0,0.79,1352000000.0,0.39075144508670523,14120000000.0,3874000000.0,6305000000.0,3523000000.0,10018000000.0,1638000000.0,8433000000.0,11953760000.0,14158760000.0,11.79658952496955,1.7896678966789668,0.2220254957507082,0.8092410944759938,0.04284794457459211,11.79658952496955,0.06763035622096025,3.454843930635838,11.406259541984733,3.085637583892617,0.3549618320610687,1.286935286935287,0.007779978851842433,0.24504249291784702,1.1036048822026683,0.018555240793201134,44.938947368421054,0.39075144508670523,-0.030674846625766763,0.7157151671101732,0.3966600327246067,0.20040220990918758,-0.02170767004341534,-0.03676470588235294,-0.05924170616113744,0.37553026238592946,0.22904404280050378,-0.02954310110139686,Specialty Chemicals,Basic Materials,PPG
2010Q2,2010,Q2,2010-07-26,2010-06-30,272000000.0,3458000000.0,422000000.0,0.815,1382000000.0,0.39965297860034704,13366000000.0,3450000000.0,5886000000.0,3373000000.0,9727000000.0,1541000000.0,8262000000.0,9991814000.0,12283814000.0,10.429262394195888,1.7450340942780906,0.23013616639233878,0.8915942028985507,0.047242694643383154,10.429262394195888,0.07884057971014492,2.889477732793522,9.183652573529411,2.8961779710144926,0.4338235294117647,1.3471771576898117,0.011809667393728506,0.258716145443663,1.0569226208123332,0.020350142151728267,26.78770509383378,0.39965297860034704,8.055555555555555,0.21814680381287394,0.3469132466337539,0.04574431595744415,0.1692047377326565,8.066666666666666,0.7957446808510639,0.08907164814032428,0.086530225220659,-0.06659849216323575,Specialty Chemicals,Basic Materials,PPG
2010Q1,2010,Q1,2010-04-26,2010-03-31,30000000.0,3126000000.0,235000000.0,0.09,1182000000.0,0.3781190019193858,13756000000.0,3592000000.0,5922000000.0,3418000000.0,9967000000.0,1599000000.0,8080000000.0,10849860000.0,13323860000.0,10.82579867389994,1.732592159157402,0.2299360279150916,0.8805679287305123,0.009963852737634114,10.82579867389994,0.008351893095768375,3.47084452975048,90.41550000000001,3.020562360801782,3.0,1.2157598499061915,0.00829503790832324,0.22724629252689735,1.0234055002925688,0.0021808665309683045,-109.59454545454545,0.3781190019193858,-0.7897042253521126,-0.6712148615208907,0.3055130709204578,0.05376764022364242,0.0,-0.7887323943661971,0.19289340101522842,-0.846752689640387,0.062003335432809094,0.03599225581563422,Specialty Chemicals,Basic Materials,PPG
2009Q4,2009,Q4,2010-02-18,2009-12-31,142000000.0,3116000000.0,197000000.0,0.4279686558167571,1182000000.0,0.3793324775353017,14240000000.0,3753000000.0,5981000000.0,3577000000.0,10318000000.0,1548000000.0,8139000000.0,9711786000.0,12000786000.0,11.311030741410487,1.6720715683533687,0.23497191011235954,0.8915534239275247,0.022616565713480773,11.311030741410487,0.03783639754862776,3.116747753530167,17.098214788732395,2.5877394084732215,0.9788732394366197,1.2493540051679586,0.014312506474092407,0.21882022471910112,1.0301928990774392,0.009971910112359551,19.501578313253013,0.3793324775353017,-0.10839863371508938,-0.19211083459322714,0.3455962490334011,0.09391012829086584,-0.043689320388349516,-0.1069182389937107,-0.3111888111888112,-0.10368218560793661,0.11357870058453537,0.1500371904890511,Specialty Chemicals,Basic Materials,PPG
2009Q3,2009,Q3,2009-10-26,2009-09-30,159000000.0,3225000000.0,286000000.0,0.48,1236000000.0,0.38325581395348834,14569000000.0,3538000000.0,6248000000.0,3869000000.0,10835000000.0,1656000000.0,8088000000.0,9616292000.0,12255292000.0,10.708232445520581,1.614887567846989,0.24277575674377103,0.9997173544375353,0.02719434628975265,10.708232445520581,0.04494064443188242,2.981795968992248,15.119955974842767,2.7180022611644996,0.6729559748427673,1.201086956521739,0.011126949971985043,0.2213604228155673,0.969501163091238,0.010913583636488434,15.894697520661158,0.38325581395348834,0.07865168539325837,-0.14825687251940786,0.39125315629343954,0.1295880240271067,0.015612161051766639,0.08904109589041095,0.07116104868913857,0.7823513568401939,0.16118199786061665,0.02480930565722547,Specialty Chemicals,Basic Materials,PPG
2009Q2,2009,Q2,2009-07-27,2009-06-30,146000000.0,3115000000.0,267000000.0,0.445,1217000000.0,0.39069020866773674,14565000000.0,3175000000.0,6422000000.0,4102000000.0,11197000000.0,1672000000.0,8017000000.0,7190820000.0,10340820000.0,9.691697191697191,1.5655777669429547,0.2884998283556471,1.3234645669291338,0.024176735618290153,9.691697191697191,0.045984251968503934,2.3084494382022474,12.313047945205478,2.264825196850394,0.6643835616438356,1.1351674641148326,0.01348942123429595,0.2138688637143838,0.9505119453924915,0.01002403020940611,20.84295652173913,0.39069020866773674,2.3088235294117645,-0.16698047482268782,0.33901040292160617,0.08336728806551094,0.14272300469483568,2.315315315315315,1.0075187969924813,-0.47258527099686026,0.11570861945685336,-0.07637332197928617,Specialty Chemicals,Basic Materials,PPG
2009Q1,2009,Q1,2009-04-27,2009-03-31,-111000000.0,2783000000.0,133000000.0,-0.34,1065000000.0,0.3826805605461732,13603000000.0,2830000000.0,5770000000.0,3970000000.0,10600000000.0,1677000000.0,7958000000.0,6051600000.0,9375600000.0,8.628048780487806,1.4534005037783375,0.2833933691097552,1.362190812720848,0.016310551389085423,8.628048780487806,-0.0392226148409894,2.174487962630255,-13.629729729729728,2.1383745583038865,-0.7837837837837838,1.024448419797257,0.014376363275827881,0.2045872234066015,0.8171284634760705,-0.008159964713666102,-17.694736842105264,0.3826805605461732,-2.570704225352113,-2.0101929374867447,0.2865183151798026,-0.0034093233389683943,-0.0811044003451251,-2.563380281690141,-0.2611111111111111,-1.6097560984225874,0.0663245593899665,-0.10999681693657318,Specialty Chemicals,Basic Materials,PPG
2008Q4,2008,Q4,2009-02-19,2008-12-31,71000000.0,3188000000.0,180000000.0,0.21646341463414634,1159000000.0,0.3635508155583438,14698000000.0,3333000000.0,6348000000.0,4210000000.0,11365000000.0,1702000000.0,8156000000.0,6958520000.0,9849520000.0,10.161585365853659,1.5078384798099762,0.26615866104231867,1.1737173717371736,0.01591614906832298,10.161585365853659,0.0213021302130213,2.1827227101631115,24.501830985915493,2.0877647764776475,1.2253521126760563,1.1921269095182139,0.0125026586113139,0.21690025853857667,0.9085510688836105,0.004830589195808954,17.3963,0.3635508155583438,-0.38153310104529614,-0.3909152758396641,0.5340454996019063,0.19831859264480398,-0.239501312335958,-0.39316239316239315,-0.5431472081218274,-0.3649163940211526,0.2863571929506839,0.10346739727816698,Specialty Chemicals,Basic Materials,PPG
2008Q3,2008,Q3,2008-10-27,2008-09-30,117000000.0,4225000000.0,394000000.0,0.35,1524000000.0,0.36071005917159765,15046000000.0,4204000000.0,6579000000.0,4469000000.0,10676000000.0,1818000000.0,8172000000.0,9605304000.0,13036304000.0,12.76259866423801,1.472141418661893,0.26232885816828394,0.9388677450047573,0.03286006189817443,12.76259866423801,0.027830637488106564,2.2734447337278105,20.524153846153848,2.284801141769743,0.7264957264957265,1.4856985698569858,0.00884927744088058,0.2808055297088927,0.8881181472365183,0.007776153130400107,26.533988950276242,0.36071005917159765,-0.5364238410596027,-0.14411745266682058,0.9894721244800156,0.731546976407252,-0.07355623100303951,-0.532,-0.07511737089201878,-0.23614783387282026,0.7002816724093418,0.29870176531169057,Specialty Chemicals,Basic Materials,PPG
2008Q2,2008,Q2,2008-07-28,2008-06-30,250000000.0,4474000000.0,426000000.0,0.755,1645000000.0,0.367679928475637,16207000000.0,4624000000.0,7091000000.0,4745000000.0,11389000000.0,2124000000.0,8141000000.0,9443102000.0,13433102000.0,14.046172539489673,1.4944151738672287,0.26260257913247365,0.9204152249134948,0.03384895047331595,14.046172539489673,0.05406574394463668,2.1106620473848903,9.443102,2.0421933391003457,0.344,1.3319209039548023,0.009107176857774065,0.27605355710495466,0.8794520547945206,0.015425433454680077,41.969342222222224,0.367679928475637,1.4754098360655739,0.6875928187152265,0.9924377103848134,0.9524629423018266,0.2692901234567901,1.5,0.918918918918919,0.1250618776727525,0.7511215364510899,0.408412650764588,Specialty Chemicals,Basic Materials,PPG
2008Q1,2008,Q1,2008-04-28,2008-03-31,100000000.0,3720000000.0,222000000.0,0.305,1296000000.0,0.34838709677419355,15899000000.0,4374000000.0,6949000000.0,4492000000.0,11346000000.0,1977000000.0,7976000000.0,9919672117.26,14065672117.26,13.34070001867698,1.5469723953695458,0.2795144348701176,1.0160036579789666,0.017560881362196853,13.34070001867698,0.022862368541380886,2.6665785261451616,24.799180293150002,2.2678719975445816,0.85,1.2261001517450683,0.008568831610079326,0.23397697968425687,0.8305877114870882,0.0062897037549531415,-826.639343105,0.34838709677419355,-0.5000000007,0.3260869592283165,0.8579304301771526,1.0233619859295315,0.2607003891050584,-0.5,-0.18681318681318682,0.10909090918430626,0.5722131059195098,0.2985645125200191,Specialty Chemicals,Basic Materials,PPG
2007Q4,2007,Q4,2008-02-21,2007-12-31,200000000.0,2874000000.0,273000000.0,0.610000000854,1028000000.0,0.35768963117606123,12629000000.0,4151000000.0,7136000000.0,4661000000.0,8345000000.0,1368000000.0,7963000000.0,11513114737.980001,14007114737.980001,12.66055001772477,1.5310019309161125,0.239132156148547,0.7275355336063599,0.027379112597734786,12.66055001772477,0.0481811611659841,4.005955023653446,14.391393422475002,2.7735761835654063,0.425,1.3494152046783625,0.0073828848173985466,0.2275714625069285,0.993349066723879,0.015836566632354106,33.76279981812317,0.35768963117606123,0.06086956670260872,1.2007400599959297,0.4938269639403526,0.9970129464419808,-0.03110273327049953,0.04712041884816754,-0.20175438596491227,0.15151515161212123,0.25597300263206607,0.22442456490001472,Specialty Chemicals,Basic Materials,PPG
2007Q3,2007,Q3,2007-10-29,2007-09-30,191000000.0,2823000000.0,342000000.0,0.575,1061000000.0,0.37584130357775414,10907000000.0,4003000000.0,5416000000.0,3032000000.0,6764000000.0,1385000000.0,7848000000.0,12663629316.975,13795629316.975,12.155706799918478,1.7862796833773087,0.12459888145227835,0.3394953784661504,0.044171533232754544,12.155706799918478,0.04771421433924557,4.485876484936238,16.575431043160993,3.1635346782350733,0.44502617801047123,1.272202166064982,0.0067121358239743715,0.2588246080498762,0.8984168865435356,0.017511689740533604,49.27482224503891,0.37584130357775414,-0.2333333333333334,0.3333333324100279,0.41035170591065856,0.49142976077532724,-0.08217993079584775,-0.23293172690763053,-0.1407035175879397,0.026548672452230686,0.22186151637409784,0.28227892835074225,Specialty Chemicals,Basic Materials,PPG
2007Q2,2007,Q2,2007-07-30,2007-06-30,249000000.0,3173000000.0,398000000.0,0.75,1156000000.0,0.3643239836117239,10684000000.0,3685000000.0,4951000000.0,2962000000.0,6815000000.0,1480000000.0,7742000000.0,12550589422.875,13720589422.875,11.173393557469788,1.6715057393652937,0.12794833395731936,0.37096336499321575,0.054111982853075495,11.173393557469788,0.06757123473541383,3.955433161952411,12.600993396460844,3.4058587307666217,0.3333333333333333,1.3628378378378379,0.006613235219751691,0.2969861475102958,0.9385550303848751,0.023305877948333956,52.95607351424051,0.3643239836117239,0.2820512820512821,1.74019607705916,0.5249028778949096,0.38687561647284385,0.12015503875968993,0.28350515463917525,0.28802588996763756,0.41121495210964903,0.3548383122891512,0.24899579892104656,Specialty Chemicals,Basic Materials,PPG
2007Q1,2007,Q1,2007-04-30,2007-03-31,194000000.0,2917000000.0,309000000.0,0.585,1032000000.0,0.3537881384984573,10345000000.0,3436000000.0,4729000000.0,2949000000.0,6744000000.0,1459000000.0,7576000000.0,11559440666.645,12841440666.645,10.449690731883718,1.6035944387928112,0.14151764137264378,0.42607683352735737,0.04774635568513119,10.449690731883718,0.056461001164144355,3.9627839104028113,14.896186426088917,3.3642143965788707,0.422680412371134,1.2919808087731324,0.007093768839232218,0.2819719671338811,0.8870803662258393,0.018753020782986952,-60.20542013877604,0.3537881384984573,0.22519701920382162,4.900000005778351,0.6086603452181039,0.16986988766561228,0.06832298136645963,0.2356687898089172,0.20233463035019456,0.7611940311161853,0.3451270985302901,0.20700109866529098,Specialty Chemicals,Basic Materials,PPG
